 H-1(n,g) JEFF-3.2
Energy(eV) XS(b)
1.00000E-05 16.7011
1.03125E-05 16.4461
1.06250E-05 16.2025
1.09375E-05 15.9693
1.12500E-05 15.7460
1.15625E-05 15.5317
1.18750E-05 15.3260
1.21875E-05 15.1282
1.25000E-05 14.9379
1.28125E-05 14.7546
1.31250E-05 14.5779
1.34375E-05 14.4074
1.37500E-05 14.2428
1.43750E-05 13.9297
1.50000E-05 13.6364
1.56250E-05 13.3609
1.62500E-05 13.1014
1.68750E-05 12.8565
1.75000E-05 12.6249
1.81250E-05 12.4053
1.87500E-05 12.1968
1.93750E-05 11.9984
2.00000E-05 11.8095
2.09375E-05 11.5420
2.18750E-05 11.2920
2.28125E-05 11.0575
2.37500E-05 10.8371
2.46875E-05 10.6294
2.56250E-05 10.4331
2.65625E-05 10.2473
2.75000E-05 10.0711
2.84375E-05 9.90374
2.93750E-05 9.74442
3.03125E-05 9.59255
3.12500E-05 9.44757
3.21875E-05 9.30897
3.31250E-05 9.17629
3.40625E-05 9.04913
3.50000E-05 8.92711
3.59375E-05 8.80990
3.68750E-05 8.69720
3.78125E-05 8.58870
3.87500E-05 8.48417
3.96875E-05 8.38337
4.06250E-05 8.28607
4.25000E-05 8.10123
4.43750E-05 7.92823
4.62500E-05 7.76586
4.81250E-05 7.61307
5.00000E-05 7.46896
5.15625E-05 7.35493
5.31250E-05 7.24596
5.46875E-05 7.14169
5.62500E-05 7.04181
5.78125E-05 6.94599
5.93750E-05 6.85399
6.09375E-05 6.76555
6.25000E-05 6.68044
6.40625E-05 6.59847
6.56250E-05 6.51944
6.71875E-05 6.44319
6.87500E-05 6.36955
7.18750E-05 6.22955
7.50000E-05 6.09838
7.81250E-05 5.97517
8.12500E-05 5.85914
8.43750E-05 5.74961
8.75000E-05 5.64601
9.06250E-05 5.54781
9.37500E-05 5.45456
9.68750E-05 5.36586
0.000100000 5.28135
0.000103125 5.20072
0.000106250 5.12367
0.000109375 5.04994
0.000112500 4.97931
0.000115625 4.91156
0.000118750 4.84650
0.000121875 4.78397
0.000125000 4.72379
0.000128125 4.66582
0.000131250 4.60994
0.000134375 4.55603
0.000137500 4.50395
0.000143750 4.40495
0.000150000 4.31221
0.000156250 4.22508
0.000162500 4.14304
0.000168750 4.06559
0.000175000 3.99233
0.000181250 3.92289
0.000187500 3.85696
0.000193750 3.79424
0.000200000 3.73448
0.000209375 3.64992
0.000218750 3.57085
0.000228125 3.49670
0.000237500 3.42700
0.000246875 3.36130
0.000256250 3.29924
0.000265625 3.24049
0.000275000 3.18478
0.000284375 3.13184
0.000293750 3.08146
0.000303125 3.03343
0.000312500 2.98759
0.000321875 2.94376
0.000331250 2.90180
0.000340625 2.86159
0.000350000 2.82300
0.000359375 2.78594
0.000368750 2.75030
0.000378125 2.71599
0.000387500 2.68293
0.000396875 2.65105
0.000406250 2.62029
0.000425000 2.56183
0.000443750 2.50713
0.000462500 2.45578
0.000481250 2.40746
0.000500000 2.36189
0.000515625 2.32583
0.000531250 2.29137
0.000546875 2.25840
0.000562500 2.22681
0.000578125 2.19652
0.000593750 2.16742
0.000609375 2.13945
0.000625000 2.11254
0.000640625 2.08662
0.000656250 2.06163
0.000671875 2.03752
0.000687500 2.01423
0.000718750 1.96996
0.000750000 1.92848
0.000781250 1.88952
0.000812500 1.85282
0.000843750 1.81819
0.000875000 1.78542
0.000906250 1.75437
0.000937500 1.72488
0.000968750 1.69683
0.00100000 1.67011
0.00103125 1.64461
0.00106250 1.62025
0.00109375 1.59693
0.00112500 1.57460
0.00115625 1.55317
0.00118750 1.53260
0.00121875 1.51282
0.00125000 1.49379
0.00128125 1.47546
0.00131250 1.45779
0.00134375 1.44074
0.00137500 1.42428
0.00143750 1.39297
0.00150000 1.36364
0.00156250 1.33609
0.00162500 1.31014
0.00168750 1.28565
0.00175000 1.26249
0.00181250 1.24053
0.00187500 1.21968
0.00193750 1.19984
0.00200000 1.18095
0.00209375 1.15421
0.00218750 1.12920
0.00228125 1.10576
0.00237500 1.08371
0.00246875 1.06294
0.00256250 1.04331
0.00265625 1.02473
0.00275000 1.00712
0.00284375 0.990375
0.00293750 0.974443
0.00303125 0.959256
0.00312500 0.944757
0.00321875 0.930897
0.00331250 0.917629
0.00340625 0.904913
0.00350000 0.892712
0.00359375 0.880991
0.00368750 0.869720
0.00378125 0.858870
0.00387500 0.848417
0.00396875 0.838337
0.00406250 0.828607
0.00425000 0.810123
0.00443750 0.792823
0.00462500 0.776586
0.00481250 0.761307
0.00500000 0.746896
0.00515625 0.735493
0.00531250 0.724596
0.00546875 0.714169
0.00562500 0.704181
0.00578125 0.694599
0.00593750 0.685399
0.00609375 0.676555
0.00625000 0.668044
0.00640625 0.659847
0.00656250 0.651945
0.00671875 0.644319
0.00687500 0.636955
0.00718750 0.622955
0.00750000 0.609838
0.00781250 0.597517
0.00812500 0.585914
0.00843750 0.574961
0.00875000 0.564601
0.00906250 0.554781
0.00937500 0.545456
0.00968750 0.536586
0.0100000 0.528135
0.0103125 0.520072
0.0106250 0.512367
0.0109375 0.504994
0.0112500 0.497931
0.0115625 0.491156
0.0118750 0.484650
0.0121875 0.478397
0.0125000 0.472379
0.0128125 0.466583
0.0131250 0.460994
0.0134375 0.455603
0.0137500 0.450396
0.0143750 0.440496
0.0150000 0.431221
0.0156250 0.422508
0.0162500 0.414304
0.0168750 0.406559
0.0175000 0.399233
0.0181250 0.392289
0.0187500 0.385696
0.0193750 0.379424
0.0200000 0.373448
0.0206625 0.367413
0.0213250 0.361660
0.0219875 0.356170
0.0226500 0.350923
0.0233125 0.345900
0.0239750 0.341088
0.0246375 0.336471
0.0253000 0.332036
0.0264578 0.324690
0.0276156 0.317810
0.0287734 0.311351
0.0299313 0.305269
0.0310891 0.299531
0.0322469 0.294105
0.0334047 0.288963
0.0345625 0.284082
0.0355274 0.280198
0.0364922 0.276469
0.0374570 0.272885
0.0384219 0.269437
0.0393867 0.266116
0.0403516 0.262915
0.0413164 0.259827
0.0422813 0.256846
0.0442109 0.251178
0.0461406 0.245869
0.0480703 0.240884
0.0500000 0.236190
0.0515625 0.232584
0.0531250 0.229138
0.0546875 0.225841
0.0562500 0.222682
0.0578125 0.219652
0.0593750 0.216743
0.0609375 0.213946
0.0625000 0.211255
0.0640625 0.208663
0.0656250 0.206164
0.0671875 0.203752
0.0687500 0.201424
0.0718750 0.196996
0.0750000 0.192848
0.0781250 0.188952
0.0812500 0.185283
0.0843750 0.181819
0.0875000 0.178543
0.0906250 0.175438
0.0937500 0.172489
0.0968750 0.169684
0.100000 0.167012
0.103125 0.164462
0.106250 0.162026
0.109375 0.159694
0.112500 0.157461
0.115625 0.155318
0.118750 0.153261
0.121875 0.151283
0.125000 0.149380
0.128125 0.147547
0.131250 0.145780
0.134375 0.144075
0.137500 0.142429
0.143750 0.139298
0.150000 0.136365
0.156250 0.133610
0.162500 0.131015
0.168750 0.128566
0.175000 0.126250
0.181250 0.124054
0.187500 0.121969
0.193750 0.119985
0.200000 0.118096
0.209375 0.115422
0.218750 0.112921
0.228125 0.110577
0.237500 0.108372
0.246875 0.106295
0.256250 0.104332
0.265625 0.102475
0.275000 0.100713
0.284375 0.0990389
0.293750 0.0974458
0.303125 0.0959272
0.312500 0.0944775
0.321875 0.0930916
0.331250 0.0917649
0.340625 0.0904934
0.350000 0.0892734
0.359375 0.0881014
0.368750 0.0869745
0.378125 0.0858897
0.387500 0.0848445
0.396875 0.0838366
0.406250 0.0828638
0.425000 0.0810156
0.443750 0.0792858
0.462500 0.0776624
0.500000 0.0746938
0.531250 0.0724640
0.562500 0.0704227
0.593750 0.0685447
0.625000 0.0668093
0.687500 0.0637006
0.750000 0.0609892
0.812500 0.0585969
0.875000 0.0564657
0.937500 0.0545513
1.00000 0.0528191
1.06250 0.0512419
1.12500 0.0497979
1.18750 0.0484694
1.25000 0.0472418
1.37500 0.0450428
1.50000 0.0431251
1.62500 0.0414334
1.75000 0.0399264
1.87500 0.0385726
2.00000 0.0373475
2.18750 0.0357106
2.37500 0.0342718
2.56250 0.0329944
2.75000 0.0318503
2.93750 0.0308175
3.12500 0.0298788
3.31250 0.0290207
3.50000 0.0282323
3.87500 0.0268307
4.25000 0.0256192
4.62500 0.0245586
5.00000 0.0236202
5.31250 0.0229152
5.62500 0.0222696
5.93750 0.0216754
6.25000 0.0211263
6.87500 0.0201425
7.50000 0.0192846
8.12500 0.0185283
8.75000 0.0178552
9.37500 0.0172505
10.0000 0.0167027
10.6250 0.0162036
11.2500 0.0157466
11.8750 0.0153262
12.5000 0.0149378
13.7500 0.0142422
15.0000 0.0136354
16.2500 0.0131004
17.5000 0.0126248
18.7500 0.0121973
20.0000 0.0118093
21.8750 0.0112907
23.7500 0.0108355
25.6250 0.0104313
27.5000 0.0100701
29.3750 0.00974389
31.2500 0.00944675
33.1250 0.00917514
35.0000 0.00892570
38.7500 0.00848234
42.5000 0.00809911
46.2500 0.00776353
50.0000 0.00746700
53.1250 0.00724423
56.2500 0.00703978
59.3750 0.00685169
62.5000 0.00667792
68.7500 0.00636667
75.0000 0.00609522
81.2500 0.00585577
87.5000 0.00564306
93.7500 0.00545196
100.000 0.00527849
106.250 0.00512046
112.500 0.00497580
118.750 0.00484274
125.000 0.00471980
137.500 0.00449960
150.000 0.00430757
162.500 0.00413818
175.000 0.00398763
187.500 0.00385241
200.000 0.00372958
218.750 0.00356524
237.500 0.00342092
256.250 0.00329277
275.000 0.00317820
293.750 0.00307479
312.500 0.00298064
331.250 0.00289462
350.000 0.00281562
387.500 0.00267523
425.000 0.00255390
462.500 0.00244766
500.000 0.00235370
531.250 0.00228281
562.500 0.00221783
593.750 0.00215807
625.000 0.00210286
687.500 0.00200400
750.000 0.00191782
812.500 0.00184182
875.000 0.00177422
937.500 0.00171351
1000.00 0.00165852
1062.50 0.00160803
1125.00 0.00156182
1187.50 0.00151933
1250.00 0.00148009
1375.00 0.00140985
1500.00 0.00134864
1625.00 0.00129468
1750.00 0.00124669
1875.00 0.00120361
2000.00 0.00116461
2125.00 0.00112850
2250.00 0.00109546
2375.00 0.00106510
2500.00 0.00103707
2750.00 0.000986943
3000.00 0.000943298
3250.00 0.000904855
3500.00 0.000870679
3750.00 0.000840024
4000.00 0.000812294
4250.00 0.000786471
4500.00 0.000762862
4750.00 0.000741183
5000.00 0.000721186
5250.00 0.000702666
5500.00 0.000685451
5750.00 0.000669395
6000.00 0.000654367
6250.00 0.000639954
6500.00 0.000626398
6750.00 0.000613624
7000.00 0.000601570
7500.00 0.000579342
8000.00 0.000559277
8500.00 0.000540675
9000.00 0.000523697
9500.00 0.000508129
10000.0 0.000493841
11250.0 0.000467996
12500.0 0.000442225
15000.0 0.000390772
17500.0 0.000359493
20000.0 0.000328388
22500.0 0.000313300
25000.0 0.000298295
27500.0 0.000283290
30000.0 0.000268286
32500.0 0.000253281
35000.0 0.000238276
37500.0 0.000223271
40000.0 0.000208327
42500.0 0.000201616
45000.0 0.000194965
47500.0 0.000188314
50000.0 0.000181664
52500.0 0.000175013
55000.0 0.000168362
57500.0 0.000161711
60000.0 0.000155085
62500.0 0.000151192
65000.0 0.000147324
67500.0 0.000143455
70000.0 0.000139587
75000.0 0.000131850
80000.0 0.000124126
85000.0 0.000119028
90000.0 0.000113943
95000.0 0.000108859
100000 0.000103786
112500 9.64574E-05
125000 8.91409E-05
150000 7.45176E-05
175000 6.68929E-05
200000 5.92844E-05
225000 5.56094E-05
250000 5.19408E-05
275000 4.82722E-05
300000 4.46077E-05
325000 4.30214E-05
350000 4.14392E-05
375000 3.98570E-05
400000 3.82767E-05
425000 3.75287E-05
450000 3.67826E-05
475000 3.60365E-05
500000 3.52915E-05
525000 3.49426E-05
550000 3.45947E-05
575000 3.42469E-05
600000 3.38996E-05
625000 3.37598E-05
650000 3.36205E-05
675000 3.34813E-05
700000 3.33424E-05
750000 3.32931E-05
800000 3.32443E-05
850000 3.33231E-05
900000 3.34022E-05
950000 3.35506E-05
1.00000E+06 3.36991E-05
1.20000E+06 3.44555E-05
1.40000E+06 3.52171E-05
1.60000E+06 3.58730E-05
1.80000E+06 3.63896E-05
2.00000E+06 3.67663E-05
2.20000E+06 3.70169E-05
2.40000E+06 3.71599E-05
2.60000E+06 3.72144E-05
2.80000E+06 3.71977E-05
3.00000E+06 3.71254E-05
3.20000E+06 3.70102E-05
3.40000E+06 3.68629E-05
3.60000E+06 3.66920E-05
3.80000E+06 3.65046E-05
4.00000E+06 3.63060E-05
4.20000E+06 3.61006E-05
4.40000E+06 3.58918E-05
4.60000E+06 3.56822E-05
4.80000E+06 3.54736E-05
5.00000E+06 3.52677E-05
5.50000E+06 3.47705E-05
6.00000E+06 3.43051E-05
6.50000E+06 3.38742E-05
7.00000E+06 3.34770E-05
7.50000E+06 3.31108E-05
8.00000E+06 3.27723E-05
8.50000E+06 3.24579E-05
9.00000E+06 3.21640E-05
9.50000E+06 3.18875E-05
1.00000E+07 3.16255E-05
1.05000E+07 3.13753E-05
1.10000E+07 3.11349E-05
1.15000E+07 3.09021E-05
1.20000E+07 3.06755E-05
1.25000E+07 3.04536E-05
1.30000E+07 3.02352E-05
1.35000E+07 3.00193E-05
1.40000E+07 2.98051E-05
1.45000E+07 2.95919E-05
1.50000E+07 2.93792E-05
1.55000E+07 2.91666E-05
1.60000E+07 2.89536E-05
1.65000E+07 2.87402E-05
1.70000E+07 2.85260E-05
1.75000E+07 2.83111E-05
1.80000E+07 2.80952E-05
1.85000E+07 2.78785E-05
1.90000E+07 2.76610E-05
1.95000E+07 2.74426E-05
2.00000E+07 2.72235E-05

