 U-235(n,el) ENDFB-8.0
Energy(eV) XS(b)
1.00000E-05 54.9381
1.03125E-05 54.1475
1.06250E-05 53.3927
1.09375E-05 52.6712
1.12500E-05 51.9806
1.15625E-05 51.3188
1.18750E-05 50.6838
1.21875E-05 50.0740
1.25000E-05 49.4877
1.28125E-05 48.9236
1.31250E-05 48.3801
1.34375E-05 47.8563
1.37500E-05 47.3508
1.43750E-05 46.3911
1.50000E-05 45.4937
1.56250E-05 44.6522
1.62500E-05 43.8611
1.68750E-05 43.1157
1.75000E-05 42.4119
1.81250E-05 41.7460
1.87500E-05 41.1148
1.93750E-05 40.5155
2.00000E-05 39.9455
2.05825E-05 39.4387
2.11651E-05 38.9538
2.17476E-05 38.4892
2.23302E-05 38.0437
2.29127E-05 37.6159
2.34952E-05 37.2049
2.40778E-05 36.8095
2.46603E-05 36.4289
2.58254E-05 35.7083
2.69905E-05 35.0372
2.81556E-05 34.4102
2.93206E-05 33.8228
3.01934E-05 33.4065
3.10662E-05 33.0088
3.19390E-05 32.6284
3.28117E-05 32.2642
3.36845E-05 31.9151
3.45573E-05 31.5801
3.54301E-05 31.2584
3.63028E-05 30.9490
3.71756E-05 30.6514
3.80484E-05 30.3647
3.97939E-05 29.8218
4.15395E-05 29.3159
4.32850E-05 28.8432
4.49638E-05 28.4168
4.66425E-05 28.0154
4.83213E-05 27.6368
5.00000E-05 27.2791
5.15625E-05 26.9633
5.31250E-05 26.6628
5.46875E-05 26.3764
5.62500E-05 26.1032
5.78125E-05 25.8422
5.93750E-05 25.5926
6.09375E-05 25.3536
6.25000E-05 25.1246
6.40625E-05 24.9049
6.56250E-05 24.6939
6.71875E-05 24.4911
6.87500E-05 24.2961
7.18750E-05 23.9275
7.50000E-05 23.5849
7.81250E-05 23.2655
8.12500E-05 22.9671
8.43750E-05 22.6875
8.75000E-05 22.4251
9.06250E-05 22.1783
9.37500E-05 21.9456
9.68750E-05 21.7260
0.000100000 21.5183
0.000103125 21.3215
0.000106250 21.1348
0.000109375 20.9575
0.000112500 20.7889
0.000115625 20.6282
0.000118750 20.4751
0.000121875 20.3289
0.000125000 20.1892
0.000128125 20.0555
0.000131250 19.9276
0.000134375 19.8050
0.000137500 19.6873
0.000143750 19.4659
0.000150000 19.2612
0.000156250 19.0714
0.000162500 18.8949
0.000168750 18.7304
0.000175000 18.5767
0.000181250 18.4327
0.000187500 18.2977
0.000193750 18.1708
0.000200000 18.0513
0.000209375 17.8846
0.000218750 17.7313
0.000228125 17.5899
0.000237500 17.4591
0.000246875 17.3377
0.000256250 17.2248
0.000265625 17.1196
0.000275000 17.0213
0.000284375 16.9292
0.000293750 16.8427
0.000303125 16.7615
0.000312500 16.6850
0.000321875 16.6128
0.000331250 16.5446
0.000340625 16.4800
0.000350000 16.4189
0.000359375 16.3608
0.000368750 16.3057
0.000378125 16.2532
0.000387500 16.2033
0.000396875 16.1556
0.000406250 16.1101
0.000425000 16.0251
0.000443750 15.9472
0.000462500 15.8756
0.000481250 15.8094
0.000500000 15.7482
0.000515625 15.7006
0.000531250 15.6557
0.000546875 15.6134
0.000562500 15.5735
0.000578125 15.5357
0.000593750 15.4998
0.000609375 15.4658
0.000625000 15.4335
0.000640625 15.4028
0.000656250 15.3735
0.000671875 15.3456
0.000687500 15.3189
0.000718750 15.2691
0.000750000 15.2233
0.000781250 15.1813
0.000812500 15.1424
0.000843750 15.1064
0.000875000 15.0730
0.000906250 15.0419
0.000937500 15.0128
0.000968750 14.9856
0.00100000 14.9601
0.00103125 14.9362
0.00106250 14.9136
0.00109375 14.8923
0.00112500 14.8722
0.00115625 14.8532
0.00118750 14.8352
0.00121875 14.8180
0.00125000 14.8018
0.00128125 14.7863
0.00131250 14.7716
0.00134375 14.7575
0.00137500 14.7441
0.00143750 14.7189
0.00150000 14.6959
0.00156250 14.6746
0.00162500 14.6550
0.00168750 14.6368
0.00175000 14.6199
0.00181250 14.6041
0.00187500 14.5894
0.00193750 14.5756
0.00200000 14.5627
0.00209375 14.5447
0.00218750 14.5282
0.00228125 14.5130
0.00237500 14.4990
0.00246875 14.4860
0.00256250 14.4740
0.00265625 14.4628
0.00275000 14.4523
0.00284375 14.4424
0.00293750 14.4332
0.00303125 14.4245
0.00312500 14.4164
0.00321875 14.4086
0.00331250 14.4013
0.00340625 14.3944
0.00350000 14.3878
0.00359375 14.3816
0.00368750 14.3756
0.00378125 14.3699
0.00387500 14.3645
0.00396875 14.3593
0.00406250 14.3544
0.00425000 14.3450
0.00443750 14.3364
0.00462500 14.3284
0.00481250 14.3210
0.00500000 14.3141
0.00515625 14.3087
0.00531250 14.3036
0.00546875 14.2987
0.00562500 14.2940
0.00578125 14.2896
0.00593750 14.2854
0.00609375 14.2813
0.00625000 14.2775
0.00640625 14.2737
0.00656250 14.2702
0.00671875 14.2667
0.00687500 14.2634
0.00718750 14.2572
0.00750000 14.2513
0.00781250 14.2458
0.00812500 14.2407
0.00843750 14.2358
0.00875000 14.2312
0.00906250 14.2268
0.00937500 14.2227
0.00968750 14.2187
0.0100000 14.2149
0.0103125 14.2113
0.0106250 14.2078
0.0109375 14.2044
0.0112500 14.2011
0.0115625 14.1980
0.0118750 14.1950
0.0121875 14.1920
0.0125000 14.1892
0.0128125 14.1864
0.0131250 14.1837
0.0134375 14.1811
0.0137500 14.1786
0.0140625 14.1761
0.0143750 14.1736
0.0150000 14.1689
0.0156250 14.1644
0.0162500 14.1601
0.0168750 14.1559
0.0175000 14.1519
0.0181250 14.1480
0.0187500 14.1442
0.0193750 14.1405
0.0200000 14.1370
0.0206625 14.1332
0.0213250 14.1296
0.0219875 14.1261
0.0226500 14.1226
0.0233125 14.1193
0.0239750 14.1159
0.0246375 14.1127
0.0253000 14.1095
0.0258307 14.1069
0.0263613 14.1044
0.0274227 14.0995
0.0284840 14.0947
0.0295453 14.0900
0.0306067 14.0853
0.0316680 14.0808
0.0327293 14.0763
0.0337906 14.0719
0.0345143 14.0689
0.0352379 14.0660
0.0359615 14.0630
0.0366852 14.0601
0.0381324 14.0544
0.0395797 14.0487
0.0410270 14.0431
0.0424742 14.0376
0.0439215 14.0322
0.0453688 14.0268
0.0465266 14.0225
0.0476844 14.0182
0.0488422 14.0140
0.0500000 14.0098
0.0515625 14.0042
0.0531250 13.9986
0.0546875 13.9930
0.0562500 13.9875
0.0578125 13.9821
0.0593750 13.9766
0.0609375 13.9712
0.0625000 13.9658
0.0640625 13.9605
0.0656250 13.9552
0.0671875 13.9499
0.0687500 13.9446
0.0703125 13.9394
0.0718750 13.9341
0.0734375 13.9289
0.0750000 13.9237
0.0765625 13.9186
0.0781250 13.9134
0.0796875 13.9083
0.0812500 13.9032
0.0843750 13.8930
0.0875000 13.8829
0.0906250 13.8729
0.0937500 13.8629
0.0968750 13.8530
0.100000 13.8431
0.103655 13.8316
0.107309 13.8201
0.110964 13.8087
0.114618 13.7974
0.118273 13.7861
0.121927 13.7748
0.125582 13.7636
0.129236 13.7525
0.132891 13.7413
0.136545 13.7303
0.140200 13.7192
0.143854 13.7082
0.147509 13.6973
0.151163 13.6864
0.154818 13.6755
0.158472 13.6647
0.162261 13.6536
0.166051 13.6426
0.169840 13.6316
0.173630 13.6207
0.177419 13.6099
0.181209 13.5993
0.184998 13.5888
0.188788 13.5784
0.191591 13.5709
0.194394 13.5635
0.197197 13.5562
0.200000 13.5491
0.204273 13.5386
0.207211 13.5316
0.210149 13.5248
0.213087 13.5183
0.216024 13.5121
0.218962 13.5063
0.221900 13.5007
0.224838 13.4956
0.227775 13.4908
0.233651 13.4827
0.239527 13.4766
0.245402 13.4728
0.248340 13.4717
0.251278 13.4713
0.254065 13.4715
0.256852 13.4723
0.259640 13.4736
0.262427 13.4755
0.265215 13.4779
0.268002 13.4808
0.270790 13.4841
0.273577 13.4879
0.275530 13.4907
0.277482 13.4937
0.279435 13.4968
0.281387 13.5001
0.283177 13.5031
0.284967 13.5062
0.286757 13.5094
0.288547 13.5125
0.290337 13.5157
0.292127 13.5189
0.293916 13.5220
0.295706 13.5251
0.297496 13.5281
0.299286 13.5310
0.301076 13.5338
0.302866 13.5366
0.306445 13.5417
0.310025 13.5462
0.312466 13.5490
0.314907 13.5514
0.319788 13.5553
0.324669 13.5580
0.329551 13.5593
0.334432 13.5594
0.339314 13.5584
0.341755 13.5574
0.344195 13.5562
0.346636 13.5547
0.349077 13.5530
0.352299 13.5504
0.355521 13.5474
0.358744 13.5441
0.361966 13.5405
0.365188 13.5366
0.368410 13.5325
0.371633 13.5282
0.374855 13.5237
0.378042 13.5190
0.381228 13.5142
0.384415 13.5093
0.387601 13.5042
0.390788 13.4991
0.393974 13.4938
0.397161 13.4885
0.400348 13.4831
0.403534 13.4777
0.406721 13.4722
0.409907 13.4667
0.413094 13.4612
0.416280 13.4556
0.419467 13.4500
0.422654 13.4444
0.425840 13.4388
0.429027 13.4332
0.432213 13.4276
0.435400 13.4220
0.438586 13.4164
0.441773 13.4108
0.444959 13.4052
0.448146 13.3996
0.451333 13.3941
0.454519 13.3885
0.457706 13.3830
0.460892 13.3775
0.464079 13.3720
0.467265 13.3666
0.470452 13.3611
0.473639 13.3557
0.476825 13.3503
0.480301 13.3445
0.483778 13.3386
0.487254 13.3328
0.490730 13.3271
0.500000 13.3118
0.515625 13.2866
0.531250 13.2619
0.546875 13.2377
0.562500 13.2141
0.578125 13.1909
0.593750 13.1681
0.609375 13.1457
0.625000 13.1237
0.640625 13.1021
0.656250 13.0807
0.671875 13.0596
0.687500 13.0387
0.703125 13.0181
0.718750 12.9976
0.734375 12.9773
0.750000 12.9571
0.765625 12.9370
0.781250 12.9170
0.804688 12.8870
0.828125 12.8571
0.839844 12.8421
0.851563 12.8270
0.863281 12.8119
0.875000 12.7968
0.890625 12.7765
0.906250 12.7561
0.916992 12.7420
0.927734 12.7278
0.938477 12.7136
0.949219 12.6994
0.959961 12.6853
0.970703 12.6712
0.981445 12.6573
0.986817 12.6504
0.992188 12.6437
1.00000 12.6340
1.00818 12.6244
1.01637 12.6152
1.02455 12.6068
1.03273 12.5993
1.04092 12.5930
1.04501 12.5905
1.04910 12.5884
1.05319 12.5868
1.05728 12.5859
1.06546 12.5860
1.07340 12.5893
1.08133 12.5965
1.08926 12.6081
1.09719 12.6248
1.10512 12.6472
1.11305 12.6752
1.11702 12.6914
1.12098 12.7089
1.12495 12.7275
1.12891 12.7472
1.13222 12.7642
1.13552 12.7817
1.13883 12.7995
1.14213 12.8174
1.14544 12.8353
1.14874 12.8530
1.15205 12.8703
1.15535 12.8870
1.15899 12.9046
1.16262 12.9211
1.16626 12.9364
1.16989 12.9503
1.17353 12.9627
1.17716 12.9736
1.18443 12.9903
1.19170 13.0006
1.19897 13.0046
1.20624 13.0032
1.20988 13.0006
1.21351 12.9970
1.21829 12.9909
1.22307 12.9833
1.22785 12.9746
1.23263 12.9649
1.23740 12.9544
1.24218 12.9432
1.24696 12.9316
1.25174 12.9196
1.25690 12.9064
1.26207 12.8930
1.26724 12.8796
1.27240 12.8663
1.27757 12.8533
1.28273 12.8407
1.28790 12.8287
1.29306 12.8173
1.29738 12.8084
1.30600 12.7920
1.31463 12.7776
1.32108 12.7677
1.32754 12.7582
1.33399 12.7490
1.34044 12.7398
1.34690 12.7306
1.35335 12.7213
1.35981 12.7119
1.36626 12.7024
1.37142 12.6949
1.37657 12.6874
1.38172 12.6800
1.39203 12.6653
1.40233 12.6509
1.41263 12.6369
1.42294 12.6233
1.43324 12.6100
1.44355 12.5970
1.45385 12.5844
1.46931 12.5660
1.48477 12.5483
1.49894 12.5324
1.51310 12.5170
1.52727 12.5020
1.54144 12.4872
1.55561 12.4728
1.56978 12.4586
1.58395 12.4446
1.59812 12.4308
1.62646 12.4037
1.65479 12.3771
1.68313 12.3507
1.69730 12.3375
1.71147 12.3244
1.72693 12.3100
1.74238 12.2955
1.75784 12.2809
1.77330 12.2660
1.78360 12.2560
1.79391 12.2458
1.80421 12.2355
1.81452 12.2249
1.82482 12.2141
1.83513 12.2030
1.84543 12.1916
1.85574 12.1798
1.86346 12.1706
1.87119 12.1611
1.87892 12.1512
1.88665 12.1409
1.89051 12.1356
1.89438 12.1302
1.89824 12.1246
1.90211 12.1188
1.90597 12.1129
1.90984 12.1069
1.91370 12.1006
1.91756 12.0941
1.92143 12.0874
1.92529 12.0805
1.92916 12.0733
1.93302 12.0658
1.93656 12.0587
1.94011 12.0513
1.94365 12.0437
1.94719 12.0357
1.95073 12.0275
1.95250 12.0233
1.95428 12.0190
1.95605 12.0147
1.95782 12.0102
1.95959 12.0058
1.96136 12.0012
1.96305 11.9969
1.96474 11.9925
1.96643 11.9880
1.96812 11.9836
1.96981 11.9792
1.97150 11.9748
1.97319 11.9704
1.97488 11.9661
1.97658 11.9619
1.97827 11.9578
1.97996 11.9538
1.98165 11.9500
1.98334 11.9465
1.98503 11.9431
1.98672 11.9401
1.98841 11.9374
1.99131 11.9337
1.99420 11.9313
1.99710 11.9306
2.00000 11.9318
2.00500 11.9391
2.01000 11.9537
2.01516 11.9772
2.01774 11.9922
2.02032 12.0092
2.02290 12.0281
2.02548 12.0488
2.02806 12.0709
2.03064 12.0941
2.03223 12.1089
2.03382 12.1239
2.03541 12.1390
2.03699 12.1542
2.03978 12.1806
2.04257 12.2065
2.04536 12.2313
2.04815 12.2547
2.05134 12.2792
2.05453 12.3008
2.05821 12.3219
2.06189 12.3387
2.06926 12.3591
2.07255 12.3630
2.07583 12.3641
2.07912 12.3628
2.08240 12.3595
2.08569 12.3545
2.08733 12.3514
2.08897 12.3481
2.09062 12.3445
2.09226 12.3408
2.09390 12.3368
2.09554 12.3327
2.09719 12.3285
2.09883 12.3241
2.10047 12.3198
2.10211 12.3153
2.10376 12.3109
2.10540 12.3064
2.10704 12.3020
2.10868 12.2975
2.11033 12.2931
2.11197 12.2887
2.11361 12.2844
2.11525 12.2801
2.11690 12.2759
2.11854 12.2717
2.12182 12.2636
2.12511 12.2557
2.12839 12.2481
2.13168 12.2408
2.13496 12.2337
2.13735 12.2287
2.14064 12.2221
2.14392 12.2157
2.14721 12.2095
2.15049 12.2036
2.15378 12.1978
2.15706 12.1922
2.16035 12.1868
2.16363 12.1815
2.16692 12.1764
2.17020 12.1714
2.17349 12.1666
2.17677 12.1618
2.18334 12.1527
2.18991 12.1440
2.19558 12.1368
2.20126 12.1299
2.20693 12.1231
2.21261 12.1166
2.21828 12.1102
2.22395 12.1040
2.23530 12.0920
2.24665 12.0806
2.25800 12.0695
2.26935 12.0589
2.28069 12.0486
2.29025 12.0401
2.30220 12.0297
2.31414 12.0196
2.32609 12.0096
2.33803 11.9999
2.36192 11.9808
2.38581 11.9622
2.40970 11.9439
2.43359 11.9259
2.45749 11.9081
2.48138 11.8903
2.51004 11.8689
2.53871 11.8474
2.55305 11.8365
2.56738 11.8254
2.58172 11.8142
2.59605 11.8027
2.60809 11.7929
2.62013 11.7828
2.63217 11.7723
2.64421 11.7615
2.65625 11.7501
2.66829 11.7382
2.68034 11.7256
2.68636 11.7190
2.69238 11.7123
2.69734 11.7066
2.70231 11.7008
2.70728 11.6949
2.71225 11.6889
2.71691 11.6833
2.72157 11.6776
2.72623 11.6719
2.73088 11.6662
2.73554 11.6606
2.74020 11.6551
2.74486 11.6497
2.74952 11.6445
2.75634 11.6371
2.76317 11.6303
2.76999 11.6241
2.77681 11.6184
2.78364 11.6133
2.79046 11.6087
2.79728 11.6046
2.80411 11.6008
2.81093 11.5973
2.81775 11.5940
2.82458 11.5907
2.83140 11.5874
2.83756 11.5844
2.84372 11.5812
2.85604 11.5743
2.86836 11.5667
2.87453 11.5626
2.88069 11.5583
2.89037 11.5511
2.90005 11.5434
2.90973 11.5353
2.91941 11.5267
2.92909 11.5177
2.93877 11.5083
2.94845 11.4986
2.95813 11.4884
2.96781 11.4779
2.97749 11.4671
2.98718 11.4561
2.99202 11.4504
2.99686 11.4448
3.00170 11.4391
3.00654 11.4334
3.01138 11.4277
3.01622 11.4221
3.02106 11.4165
3.02590 11.4110
3.03074 11.4057
3.03558 11.4005
3.04086 11.3952
3.04614 11.3902
3.05142 11.3857
3.05670 11.3818
3.06289 11.3782
3.06908 11.3758
3.07526 11.3749
3.08145 11.3759
3.08764 11.3790
3.09383 11.3844
3.10620 11.4035
3.11610 11.4272
3.12043 11.4399
3.12477 11.4540
3.12910 11.4693
3.13344 11.4857
3.13777 11.5030
3.14210 11.5210
3.14644 11.5395
3.15077 11.5582
3.15449 11.5742
3.15820 11.5900
3.16161 11.6041
3.16502 11.6178
3.16843 11.6309
3.17183 11.6434
3.17524 11.6551
3.17865 11.6659
3.18546 11.6847
3.19042 11.6958
3.19538 11.7047
3.20259 11.7137
3.20980 11.7181
3.21701 11.7185
3.22422 11.7152
3.23143 11.7089
3.23864 11.7001
3.24585 11.6894
3.25306 11.6772
3.25711 11.6699
3.26117 11.6622
3.26522 11.6544
3.26928 11.6464
3.27469 11.6355
3.28212 11.6202
3.28956 11.6048
3.29700 11.5894
3.30443 11.5739
3.31187 11.5585
3.31930 11.5432
3.32674 11.5280
3.33417 11.5128
3.33958 11.5018
3.34499 11.4908
3.35040 11.4798
3.35648 11.4674
3.36256 11.4550
3.36865 11.4425
3.37473 11.4300
3.38082 11.4174
3.38690 11.4046
3.39298 11.3917
3.39907 11.3787
3.40650 11.3624
3.41394 11.3459
3.42137 11.3289
3.42881 11.3115
3.43625 11.2936
3.44368 11.2752
3.44740 11.2658
3.45112 11.2562
3.45484 11.2465
3.45855 11.2366
3.46464 11.2200
3.47072 11.2030
3.47376 11.1944
3.47680 11.1856
3.47985 11.1768
3.48289 11.1678
3.48593 11.1588
3.48897 11.1497
3.49201 11.1405
3.49506 11.1314
3.49810 11.1222
3.50114 11.1130
3.50418 11.1039
3.50722 11.0949
3.51094 11.0840
3.51466 11.0735
3.51838 11.0635
3.52210 11.0541
3.52581 11.0454
3.52953 11.0378
3.53325 11.0314
3.53697 11.0265
3.54076 11.0234
3.54455 11.0225
3.54834 11.0242
3.55213 11.0289
3.55593 11.0370
3.55972 11.0489
3.56730 11.0853
3.57630 11.1532
3.58080 11.1977
3.58530 11.2494
3.58980 11.3077
3.59430 11.3721
3.59880 11.4417
3.60330 11.5154
3.60780 11.5919
3.61231 11.6696
3.61531 11.7214
3.61832 11.7725
3.62208 11.8349
3.62584 11.8946
3.62959 11.9510
3.63335 12.0032
3.63711 12.0507
3.64087 12.0931
3.64463 12.1301
3.64838 12.1614
3.65442 12.2000
3.66046 12.2244
3.66650 12.2361
3.66952 12.2376
3.67254 12.2365
3.67733 12.2302
3.67973 12.2251
3.68212 12.2190
3.68451 12.2119
3.68691 12.2039
3.68930 12.1952
3.69169 12.1858
3.69430 12.1749
3.69691 12.1636
3.69931 12.1527
3.70170 12.1416
3.70409 12.1303
3.70649 12.1188
3.70888 12.1072
3.71127 12.0956
3.71367 12.0839
3.71606 12.0723
3.71845 12.0607
3.72085 12.0492
3.72324 12.0379
3.72563 12.0266
3.72803 12.0155
3.73042 12.0045
3.73281 11.9937
3.73521 11.9831
3.73869 11.9680
3.74217 11.9533
3.74565 11.9389
3.74913 11.9250
3.75261 11.9114
3.75610 11.8982
3.75958 11.8854
3.76306 11.8730
3.76567 11.8639
3.76828 11.8550
3.77089 11.8463
3.77350 11.8378
3.77659 11.8279
3.77968 11.8183
3.78276 11.8089
3.78585 11.7998
3.78868 11.7916
3.79151 11.7835
3.79717 11.7680
3.80283 11.7532
3.80849 11.7389
3.81416 11.7252
3.81982 11.7120
3.82548 11.6994
3.83114 11.6872
3.83577 11.6775
3.84040 11.6681
3.84503 11.6590
3.84966 11.6501
3.85893 11.6330
3.86819 11.6168
3.87745 11.6013
3.88671 11.5865
3.89598 11.5723
3.90524 11.5587
3.91347 11.5470
3.92171 11.5357
3.92994 11.5247
3.93817 11.5140
3.95464 11.4935
3.97111 11.4739
3.98346 11.4598
3.99581 11.4461
4.00816 11.4328
4.02051 11.4198
4.03286 11.4071
4.04521 11.3947
4.06991 11.3705
4.09461 11.3472
4.11931 11.3244
4.14401 11.3021
4.16871 11.2802
4.20165 11.2513
4.23458 11.2225
4.26340 11.1974
4.29222 11.1720
4.32104 11.1464
4.34985 11.1202
4.37867 11.0933
4.39308 11.0795
4.40749 11.0655
4.42190 11.0512
4.43631 11.0365
4.45072 11.0215
4.46512 11.0060
4.48159 10.9877
4.49806 10.9687
4.51452 10.9488
4.53099 10.9279
4.53923 10.9170
4.55055 10.9016
4.56187 10.8855
4.57319 10.8686
4.58451 10.8509
4.59583 10.8322
4.60149 10.8224
4.60715 10.8124
4.61281 10.8020
4.61847 10.7913
4.62413 10.7802
4.62979 10.7687
4.63803 10.7513
4.64626 10.7328
4.65038 10.7231
4.65450 10.7132
4.65861 10.7029
4.66273 10.6922
4.66685 10.6812
4.67096 10.6698
4.67662 10.6534
4.68229 10.6362
4.68795 10.6179
4.69078 10.6084
4.69361 10.5986
4.69644 10.5885
4.69927 10.5780
4.70210 10.5673
4.70493 10.5562
4.70776 10.5447
4.71059 10.5329
4.71342 10.5207
4.71625 10.5080
4.71869 10.4967
4.72114 10.4851
4.72358 10.4731
4.72603 10.4608
4.72847 10.4482
4.73092 10.4351
4.73336 10.4217
4.73580 10.4080
4.73825 10.3938
4.74069 10.3793
4.74314 10.3645
4.74558 10.3494
4.74803 10.3340
4.75047 10.3183
4.75291 10.3025
4.75536 10.2865
4.75819 10.2678
4.76102 10.2493
4.76385 10.2309
4.76668 10.2129
4.76951 10.1956
4.77234 10.1791
4.77517 10.1637
4.77800 10.1498
4.78083 10.1377
4.78366 10.1277
4.78649 10.1203
4.78932 10.1159
4.79215 10.1148
4.79498 10.1176
4.79781 10.1246
4.80064 10.1362
4.80450 10.1601
4.80836 10.1942
4.81608 10.2949
4.82123 10.3868
4.82453 10.4558
4.82783 10.5324
4.83113 10.6157
4.83443 10.7049
4.83848 10.8209
4.84050 10.8811
4.84252 10.9422
4.84454 11.0041
4.84656 11.0664
4.84858 11.1289
4.85060 11.1911
4.85131 11.2126
4.85324 11.2713
4.85517 11.3291
4.85711 11.3859
4.85904 11.4411
4.86291 11.5465
4.86678 11.6434
4.87009 11.7187
4.87340 11.7859
4.87614 11.8352
4.87888 11.8785
4.88436 11.9468
4.89234 12.0038
4.89633 12.0149
4.90031 12.0157
4.90306 12.0110
4.90580 12.0024
4.90854 11.9905
4.91128 11.9755
4.91402 11.9581
4.91676 11.9384
4.91950 11.9171
4.92224 11.8943
4.92499 11.8705
4.92773 11.8460
4.93047 11.8210
4.93321 11.7957
4.93595 11.7704
4.93869 11.7453
4.94143 11.7204
4.94418 11.6960
4.94667 11.6743
4.94916 11.6530
4.95165 11.6322
4.95414 11.6121
4.95664 11.5924
4.95913 11.5734
4.96162 11.5550
4.96411 11.5372
4.96661 11.5199
4.96910 11.5033
4.97159 11.4872
4.97408 11.4716
4.97657 11.4566
4.97907 11.4421
4.98156 11.4281
4.98405 11.4145
4.98804 11.3937
4.99103 11.3789
4.99402 11.3646
4.99701 11.3508
5.00000 11.3375
5.00424 11.3195
5.00847 11.3023
5.01271 11.2860
5.01695 11.2703
5.02118 11.2553
5.02542 11.2410
5.02966 11.2272
5.03389 11.2139
5.03813 11.2011
5.04237 11.1888
5.04661 11.1769
5.05084 11.1653
5.05508 11.1541
5.05932 11.1433
5.06779 11.1225
5.07304 11.1102
5.07829 11.0982
5.08355 11.0867
5.08880 11.0754
5.09931 11.0538
5.10981 11.0333
5.12032 11.0137
5.13082 10.9949
5.14133 10.9769
5.15183 10.9594
5.16070 10.9452
5.16958 10.9312
5.17845 10.9177
5.18732 10.9044
5.19619 10.8914
5.20506 10.8787
5.22281 10.8539
5.24055 10.8300
5.25830 10.8068
5.26717 10.7955
5.27604 10.7843
5.28491 10.7732
5.29378 10.7623
5.30432 10.7494
5.31485 10.7366
5.32539 10.7239
5.33066 10.7176
5.33592 10.7112
5.34119 10.7049
5.34646 10.6986
5.35173 10.6923
5.35700 10.6860
5.36226 10.6797
5.36753 10.6735
5.37280 10.6673
5.37807 10.6614
5.38307 10.6558
5.38808 10.6506
5.39309 10.6457
5.39810 10.6412
5.40310 10.6372
5.40811 10.6339
5.41312 10.6313
5.41813 10.6296
5.42792 10.6291
5.43282 10.6304
5.43772 10.6327
5.44399 10.6370
5.44713 10.6398
